# LIBC V1.5 He4 V1
# E E[MeV/u] F1[mm] F2[mm] F3[mm] F4[mm] F5[mm] F6[mm]    I1      I2      I3      I4      I5      I6      I7      I8      I9     I10     I11     I12     I13     I14     I15
  1   50.57   18.6   19.0   19.7   20.6   23.4   26.9  2.0e+07 3.0e+07 5.0e+07 8.0e+07 1.0e+08 1.5e+08 2.0e+08 3.0e+08 5.0e+08 8.0e+08 1.0e+09 1.5e+09 2.0e+09 3.0e+09 5.0e+09
  2   51.79   18.2   18.6   19.3   20.2   23.1   26.6  2.0e+07 3.0e+07 5.0e+07 8.0e+07 1.0e+08 1.5e+08 2.0e+08 3.0e+08 5.0e+08 8.0e+08 1.0e+09 1.5e+09 2.0e+09 3.0e+09 5.0e+09
  3   52.98   17.8   18.2   18.9   19.9   22.8   26.3  2.0e+07 3.0e+07 5.0e+07 8.0e+07 1.0e+08 1.5e+08 2.0e+08 3.0e+08 5.0e+08 8.0e+08 1.0e+09 1.5e+09 2.0e+09 3.0e+09 5.0e+09
  4   54.15   17.4   17.8   18.6   19.5   22.4   26.1  2.0e+07 3.0e+07 5.0e+07 8.0e+07 1.0e+08 1.5e+08 2.0e+08 3.0e+08 5.0e+08 8.0e+08 1.0e+09 1.5e+09 2.0e+09 3.0e+09 5.0e+09
  5   55.30   17.0   17.4   18.2   19.2   22.2   25.8  2.0e+07 3.0e+07 5.0e+07 8.0e+07 1.0e+08 1.5e+08 2.0e+08 3.0e+08 5.0e+08 8.0e+08 1.0e+09 1.5e+09 2.0e+09 3.0e+09 5.0e+09
  6   56.44   16.7   17.1   17.9   18.9   21.9   25.6  2.0e+07 3.0e+07 5.0e+07 8.0e+07 1.0e+08 1.5e+08 2.0e+08 3.0e+08 5.0e+08 8.0e+08 1.0e+09 1.5e+09 2.0e+09 3.0e+09 5.0e+09
  7   57.55   16.3   16.7   17.6   18.6   21.6   25.4  2.0e+07 3.0e+07 5.0e+07 8.0e+07 1.0e+08 1.5e+08 2.0e+08 3.0e+08 5.0e+08 8.0e+08 1.0e+09 1.5e+09 2.0e+09 3.0e+09 5.0e+09
  8   58.65   16.0   16.4   17.3   18.3   21.4   25.2  2.0e+07 3.0e+07 5.0e+07 8.0e+07 1.0e+08 1.5e+08 2.0e+08 3.0e+08 5.0e+08 8.0e+08 1.0e+09 1.5e+09 2.0e+09 3.0e+09 5.0e+09
  9   59.74   15.7   16.1   17.0   18.0   21.2   25.0  2.0e+07 3.0e+07 5.0e+07 8.0e+07 1.0e+08 1.5e+08 2.0e+08 3.0e+08 5.0e+08 8.0e+08 1.0e+09 1.5e+09 2.0e+09 3.0e+09 5.0e+09
 10   60.80   15.4   15.8   16.7   17.8   21.0   24.8  2.0e+07 3.0e+07 5.0e+07 8.0e+07 1.0e+08 1.5e+08 2.0e+08 3.0e+08 5.0e+08 8.0e+08 1.0e+09 1.5e+09 2.0e+09 3.0e+09 5.0e+09
 11   61.86   15.1   15.6   16.5   17.5   20.7   24.6  2.0e+07 3.0e+07 5.0e+07 8.0e+07 1.0e+08 1.5e+08 2.0e+08 3.0e+08 5.0e+08 8.0e+08 1.0e+09 1.5e+09 2.0e+09 3.0e+09 5.0e+09
 12   62.90   14.9   15.3   16.2   17.3   20.6   24.4  2.0e+07 3.0e+07 5.0e+07 8.0e+07 1.0e+08 1.5e+08 2.0e+08 3.0e+08 5.0e+08 8.0e+08 1.0e+09 1.5e+09 2.0e+09 3.0e+09 5.0e+09
 13   63.93   14.6   15.1   16.0   17.1   20.4   24.3  2.0e+07 3.0e+07 5.0e+07 8.0e+07 1.0e+08 1.5e+08 2.0e+08 3.0e+08 5.0e+08 8.0e+08 1.0e+09 1.5e+09 2.0e+09 3.0e+09 5.0e+09
 14   64.94   14.4   14.8   15.8   16.9   20.2   24.2  2.0e+07 3.0e+07 5.0e+07 8.0e+07 1.0e+08 1.5e+08 2.0e+08 3.0e+08 5.0e+08 8.0e+08 1.0e+09 1.5e+09 2.0e+09 3.0e+09 5.0e+09
 15   65.94   14.2   14.6   15.6   16.7   20.0   24.0  2.0e+07 3.0e+07 5.0e+07 8.0e+07 1.0e+08 1.5e+08 2.0e+08 3.0e+08 5.0e+08 8.0e+08 1.0e+09 1.5e+09 2.0e+09 3.0e+09 5.0e+09
 16   66.93   13.9   14.4   15.4   16.5   19.9   23.9  2.0e+07 3.0e+07 5.0e+07 8.0e+07 1.0e+08 1.5e+08 2.0e+08 3.0e+08 5.0e+08 8.0e+08 1.0e+09 1.5e+09 2.0e+09 3.0e+09 5.0e+09
 17   67.91   13.7   14.2   15.2   16.3   19.7   23.8  2.0e+07 3.0e+07 5.0e+07 8.0e+07 1.0e+08 1.5e+08 2.0e+08 3.0e+08 5.0e+08 8.0e+08 1.0e+09 1.5e+09 2.0e+09 3.0e+09 5.0e+09
 18   68.88   13.5   14.0   15.0   16.2   19.6   23.6  2.0e+07 3.0e+07 5.0e+07 8.0e+07 1.0e+08 1.5e+08 2.0e+08 3.0e+08 5.0e+08 8.0e+08 1.0e+09 1.5e+09 2.0e+09 3.0e+09 5.0e+09
 19   69.84   13.3   13.8   14.8   16.0   19.5   23.5  2.0e+07 3.0e+07 5.0e+07 8.0e+07 1.0e+08 1.5e+08 2.0e+08 3.0e+08 5.0e+08 8.0e+08 1.0e+09 1.5e+09 2.0e+09 3.0e+09 5.0e+09
 20   70.79   13.1   13.6   14.6   15.8   19.3   23.4  2.0e+07 3.0e+07 5.0e+07 8.0e+07 1.0e+08 1.5e+08 2.0e+08 3.0e+08 5.0e+08 8.0e+08 1.0e+09 1.5e+09 2.0e+09 3.0e+09 5.0e+09
 21   71.73   13.0   13.5   14.5   15.7   19.2   23.3  2.0e+07 3.0e+07 5.0e+07 8.0e+07 1.0e+08 1.5e+08 2.0e+08 3.0e+08 5.0e+08 8.0e+08 1.0e+09 1.5e+09 2.0e+09 3.0e+09 5.0e+09
 22   72.65   12.8   13.3   14.3   15.6   19.1   23.2  2.0e+07 3.0e+07 5.0e+07 8.0e+07 1.0e+08 1.5e+08 2.0e+08 3.0e+08 5.0e+08 8.0e+08 1.0e+09 1.5e+09 2.0e+09 3.0e+09 5.0e+09
 23   73.57   12.6   13.2   14.2   15.4   19.0   23.1  2.0e+07 3.0e+07 5.0e+07 8.0e+07 1.0e+08 1.5e+08 2.0e+08 3.0e+08 5.0e+08 8.0e+08 1.0e+09 1.5e+09 2.0e+09 3.0e+09 5.0e+09
 24   74.48   12.5   13.0   14.0   15.3   18.9   23.1  2.0e+07 3.0e+07 5.0e+07 8.0e+07 1.0e+08 1.5e+08 2.0e+08 3.0e+08 5.0e+08 8.0e+08 1.0e+09 1.5e+09 2.0e+09 3.0e+09 5.0e+09
 25   75.39   12.3   12.9   13.9   15.2   18.8   23.0  2.0e+07 3.0e+07 5.0e+07 8.0e+07 1.0e+08 1.5e+08 2.0e+08 3.0e+08 5.0e+08 8.0e+08 1.0e+09 1.5e+09 2.0e+09 3.0e+09 5.0e+09
 26   76.28   12.2   12.7   13.8   15.0   18.7   22.9  2.0e+07 3.0e+07 5.0e+07 8.0e+07 1.0e+08 1.5e+08 2.0e+08 3.0e+08 5.0e+08 8.0e+08 1.0e+09 1.5e+09 2.0e+09 3.0e+09 5.0e+09
 27   77.17   12.0   12.6   13.7   14.9   18.6   22.8  2.0e+07 3.0e+07 5.0e+07 8.0e+07 1.0e+08 1.5e+08 2.0e+08 3.0e+08 5.0e+08 8.0e+08 1.0e+09 1.5e+09 2.0e+09 3.0e+09 5.0e+09
 28   78.05   11.9   12.4   13.5   14.8   18.5   22.8  2.0e+07 3.0e+07 5.0e+07 8.0e+07 1.0e+08 1.5e+08 2.0e+08 3.0e+08 5.0e+08 8.0e+08 1.0e+09 1.5e+09 2.0e+09 3.0e+09 5.0e+09
 29   78.92   11.8   12.3   13.4   14.7   18.4   22.7  2.0e+07 3.0e+07 5.0e+07 8.0e+07 1.0e+08 1.5e+08 2.0e+08 3.0e+08 5.0e+08 8.0e+08 1.0e+09 1.5e+09 2.0e+09 3.0e+09 5.0e+09
 30   79.78   11.6   12.2   13.3   14.6   18.4   22.6  2.0e+07 3.0e+07 5.0e+07 8.0e+07 1.0e+08 1.5e+08 2.0e+08 3.0e+08 5.0e+08 8.0e+08 1.0e+09 1.5e+09 2.0e+09 3.0e+09 5.0e+09
 31   80.64   11.5   12.1   13.2   14.5   18.3   22.6  2.0e+07 3.0e+07 5.0e+07 8.0e+07 1.0e+08 1.5e+08 2.0e+08 3.0e+08 5.0e+08 8.0e+08 1.0e+09 1.5e+09 2.0e+09 3.0e+09 5.0e+09
 32   81.49   11.4   12.0   13.1   14.4   18.2   22.5  2.0e+07 3.0e+07 5.0e+07 8.0e+07 1.0e+08 1.5e+08 2.0e+08 3.0e+08 5.0e+08 8.0e+08 1.0e+09 1.5e+09 2.0e+09 3.0e+09 5.0e+09
 33   82.33   11.3   11.9   13.0   14.3   18.1   22.4  2.0e+07 3.0e+07 5.0e+07 8.0e+07 1.0e+08 1.5e+08 2.0e+08 3.0e+08 5.0e+08 8.0e+08 1.0e+09 1.5e+09 2.0e+09 3.0e+09 5.0e+09
 34   83.17   11.2   11.8   12.9   14.3   18.1   22.4  2.0e+07 3.0e+07 5.0e+07 8.0e+07 1.0e+08 1.5e+08 2.0e+08 3.0e+08 5.0e+08 8.0e+08 1.0e+09 1.5e+09 2.0e+09 3.0e+09 5.0e+09
 35   84.00   11.1   11.7   12.8   14.2   18.0   22.3  2.0e+07 3.0e+07 5.0e+07 8.0e+07 1.0e+08 1.5e+08 2.0e+08 3.0e+08 5.0e+08 8.0e+08 1.0e+09 1.5e+09 2.0e+09 3.0e+09 5.0e+09
 36   84.82   11.0   11.6   12.7   14.1   17.9   22.3  2.0e+07 3.0e+07 5.0e+07 8.0e+07 1.0e+08 1.5e+08 2.0e+08 3.0e+08 5.0e+08 8.0e+08 1.0e+09 1.5e+09 2.0e+09 3.0e+09 5.0e+09
 37   85.64   10.9   11.5   12.6   14.0   17.9   22.2  2.0e+07 3.0e+07 5.0e+07 8.0e+07 1.0e+08 1.5e+08 2.0e+08 3.0e+08 5.0e+08 8.0e+08 1.0e+09 1.5e+09 2.0e+09 3.0e+09 5.0e+09
 38   86.45   10.8   11.4   12.6   13.9   17.8   22.2  2.0e+07 3.0e+07 5.0e+07 8.0e+07 1.0e+08 1.5e+08 2.0e+08 3.0e+08 5.0e+08 8.0e+08 1.0e+09 1.5e+09 2.0e+09 3.0e+09 5.0e+09
 39   87.25   10.7   11.3   12.5   13.9   17.8   22.1  2.0e+07 3.0e+07 5.0e+07 8.0e+07 1.0e+08 1.5e+08 2.0e+08 3.0e+08 5.0e+08 8.0e+08 1.0e+09 1.5e+09 2.0e+09 3.0e+09 5.0e+09
 40   88.05   10.6   11.2   12.4   13.8   17.7   22.1  2.0e+07 3.0e+07 5.0e+07 8.0e+07 1.0e+08 1.5e+08 2.0e+08 3.0e+08 5.0e+08 8.0e+08 1.0e+09 1.5e+09 2.0e+09 3.0e+09 5.0e+09
 41   88.85   10.5   11.1   12.3   13.7   17.6   22.1  2.0e+07 3.0e+07 5.0e+07 8.0e+07 1.0e+08 1.5e+08 2.0e+08 3.0e+08 5.0e+08 8.0e+08 1.0e+09 1.5e+09 2.0e+09 3.0e+09 5.0e+09
 42   89.64   10.4   11.0   12.3   13.7   17.6   22.0  2.0e+07 3.0e+07 5.0e+07 8.0e+07 1.0e+08 1.5e+08 2.0e+08 3.0e+08 5.0e+08 8.0e+08 1.0e+09 1.5e+09 2.0e+09 3.0e+09 5.0e+09
 43   90.42   10.3   11.0   12.2   13.6   17.6   22.0  2.0e+07 3.0e+07 5.0e+07 8.0e+07 1.0e+08 1.5e+08 2.0e+08 3.0e+08 5.0e+08 8.0e+08 1.0e+09 1.5e+09 2.0e+09 3.0e+09 5.0e+09
 44   91.20   10.2   10.9   12.1   13.5   17.5   21.9  2.0e+07 3.0e+07 5.0e+07 8.0e+07 1.0e+08 1.5e+08 2.0e+08 3.0e+08 5.0e+08 8.0e+08 1.0e+09 1.5e+09 2.0e+09 3.0e+09 5.0e+09
 45   91.98   10.2   10.8   12.1   13.5   17.5   21.9  2.0e+07 3.0e+07 5.0e+07 8.0e+07 1.0e+08 1.5e+08 2.0e+08 3.0e+08 5.0e+08 8.0e+08 1.0e+09 1.5e+09 2.0e+09 3.0e+09 5.0e+09
 46   92.75   10.1   10.7   12.0   13.4   17.4   21.9  2.0e+07 3.0e+07 5.0e+07 8.0e+07 1.0e+08 1.5e+08 2.0e+08 3.0e+08 5.0e+08 8.0e+08 1.0e+09 1.5e+09 2.0e+09 3.0e+09 5.0e+09
 47   93.51   10.0   10.7   11.9   13.4   17.4   21.8  2.0e+07 3.0e+07 5.0e+07 8.0e+07 1.0e+08 1.5e+08 2.0e+08 3.0e+08 5.0e+08 8.0e+08 1.0e+09 1.5e+09 2.0e+09 3.0e+09 5.0e+09
 48   94.27    9.9   10.6   11.9   13.3   17.3   21.8  2.0e+07 3.0e+07 5.0e+07 8.0e+07 1.0e+08 1.5e+08 2.0e+08 3.0e+08 5.0e+08 8.0e+08 1.0e+09 1.5e+09 2.0e+09 3.0e+09 5.0e+09
 49   95.02    9.9   10.5   11.8   13.3   17.3   21.8  2.0e+07 3.0e+07 5.0e+07 8.0e+07 1.0e+08 1.5e+08 2.0e+08 3.0e+08 5.0e+08 8.0e+08 1.0e+09 1.5e+09 2.0e+09 3.0e+09 5.0e+09
 50   95.78    9.8   10.5   11.8   13.2   17.2   21.7  2.0e+07 3.0e+07 5.0e+07 8.0e+07 1.0e+08 1.5e+08 2.0e+08 3.0e+08 5.0e+08 8.0e+08 1.0e+09 1.5e+09 2.0e+09 3.0e+09 5.0e+09
 51   96.52    9.7   10.4   11.7   13.2   17.2   21.7  2.0e+07 3.0e+07 5.0e+07 8.0e+07 1.0e+08 1.5e+08 2.0e+08 3.0e+08 5.0e+08 8.0e+08 1.0e+09 1.5e+09 2.0e+09 3.0e+09 5.0e+09
 52   97.26    9.7   10.4   11.6   13.1   17.2   21.7  2.0e+07 3.0e+07 5.0e+07 8.0e+07 1.0e+08 1.5e+08 2.0e+08 3.0e+08 5.0e+08 8.0e+08 1.0e+09 1.5e+09 2.0e+09 3.0e+09 5.0e+09
 53   98.00    9.6   10.3   11.6   13.1   17.1   21.7  2.0e+07 3.0e+07 5.0e+07 8.0e+07 1.0e+08 1.5e+08 2.0e+08 3.0e+08 5.0e+08 8.0e+08 1.0e+09 1.5e+09 2.0e+09 3.0e+09 5.0e+09
 54   98.74    9.5   10.2   11.5   13.0   17.1   21.6  2.0e+07 3.0e+07 5.0e+07 8.0e+07 1.0e+08 1.5e+08 2.0e+08 3.0e+08 5.0e+08 8.0e+08 1.0e+09 1.5e+09 2.0e+09 3.0e+09 5.0e+09
 55   99.46    9.5   10.2   11.5   13.0   17.1   21.6  2.0e+07 3.0e+07 5.0e+07 8.0e+07 1.0e+08 1.5e+08 2.0e+08 3.0e+08 5.0e+08 8.0e+08 1.0e+09 1.5e+09 2.0e+09 3.0e+09 5.0e+09
 56  100.19    9.4   10.1   11.4   12.9   17.0   21.6  2.0e+07 3.0e+07 5.0e+07 8.0e+07 1.0e+08 1.5e+08 2.0e+08 3.0e+08 5.0e+08 8.0e+08 1.0e+09 1.5e+09 2.0e+09 3.0e+09 5.0e+09
 57  100.91    9.4   10.1   11.4   12.9   17.0   21.5  2.0e+07 3.0e+07 5.0e+07 8.0e+07 1.0e+08 1.5e+08 2.0e+08 3.0e+08 5.0e+08 8.0e+08 1.0e+09 1.5e+09 2.0e+09 3.0e+09 5.0e+09
 58  101.63    9.3   10.0   11.3   12.9   17.0   21.5  2.0e+07 3.0e+07 5.0e+07 8.0e+07 1.0e+08 1.5e+08 2.0e+08 3.0e+08 5.0e+08 8.0e+08 1.0e+09 1.5e+09 2.0e+09 3.0e+09 5.0e+09
 59  102.34    9.3   10.0   11.3   12.8   16.9   21.5  2.0e+07 3.0e+07 5.0e+07 8.0e+07 1.0e+08 1.5e+08 2.0e+08 3.0e+08 5.0e+08 8.0e+08 1.0e+09 1.5e+09 2.0e+09 3.0e+09 5.0e+09
 60  103.05    9.2    9.9   11.3   12.8   16.9   21.5  2.0e+07 3.0e+07 5.0e+07 8.0e+07 1.0e+08 1.5e+08 2.0e+08 3.0e+08 5.0e+08 8.0e+08 1.0e+09 1.5e+09 2.0e+09 3.0e+09 5.0e+09
 61  103.76    9.2    9.9   11.2   12.7   16.9   21.5  2.0e+07 3.0e+07 5.0e+07 8.0e+07 1.0e+08 1.5e+08 2.0e+08 3.0e+08 5.0e+08 8.0e+08 1.0e+09 1.5e+09 2.0e+09 3.0e+09 5.0e+09
 62  104.46    9.1    9.8   11.2   12.7   16.9   21.4  2.0e+07 3.0e+07 5.0e+07 8.0e+07 1.0e+08 1.5e+08 2.0e+08 3.0e+08 5.0e+08 8.0e+08 1.0e+09 1.5e+09 2.0e+09 3.0e+09 5.0e+09
 63  105.16    9.0    9.8   11.1   12.7   16.8   21.4  2.0e+07 3.0e+07 5.0e+07 8.0e+07 1.0e+08 1.5e+08 2.0e+08 3.0e+08 5.0e+08 8.0e+08 1.0e+09 1.5e+09 2.0e+09 3.0e+09 5.0e+09
 64  105.86    9.0    9.7   11.1   12.6   16.8   21.4  2.0e+07 3.0e+07 5.0e+07 8.0e+07 1.0e+08 1.5e+08 2.0e+08 3.0e+08 5.0e+08 8.0e+08 1.0e+09 1.5e+09 2.0e+09 3.0e+09 5.0e+09
 65  106.55    9.0    9.7   11.0   12.6   16.8   21.4  2.0e+07 3.0e+07 5.0e+07 8.0e+07 1.0e+08 1.5e+08 2.0e+08 3.0e+08 5.0e+08 8.0e+08 1.0e+09 1.5e+09 2.0e+09 3.0e+09 5.0e+09
 66  107.24    8.9    9.6   11.0   12.6   16.8   21.3  2.0e+07 3.0e+07 5.0e+07 8.0e+07 1.0e+08 1.5e+08 2.0e+08 3.0e+08 5.0e+08 8.0e+08 1.0e+09 1.5e+09 2.0e+09 3.0e+09 5.0e+09
 67  107.93    8.9    9.6   11.0   12.5   16.7   21.3  2.0e+07 3.0e+07 5.0e+07 8.0e+07 1.0e+08 1.5e+08 2.0e+08 3.0e+08 5.0e+08 8.0e+08 1.0e+09 1.5e+09 2.0e+09 3.0e+09 5.0e+09
 68  108.61    8.8    9.5   10.9   12.5   16.7   21.3  2.0e+07 3.0e+07 5.0e+07 8.0e+07 1.0e+08 1.5e+08 2.0e+08 3.0e+08 5.0e+08 8.0e+08 1.0e+09 1.5e+09 2.0e+09 3.0e+09 5.0e+09
 69  109.28    8.8    9.5   10.9   12.5   16.7   21.3  2.0e+07 3.0e+07 5.0e+07 8.0e+07 1.0e+08 1.5e+08 2.0e+08 3.0e+08 5.0e+08 8.0e+08 1.0e+09 1.5e+09 2.0e+09 3.0e+09 5.0e+09
 70  109.97    8.7    9.5   10.9   12.4   16.7   21.3  2.0e+07 3.0e+07 5.0e+07 8.0e+07 1.0e+08 1.5e+08 2.0e+08 3.0e+08 5.0e+08 8.0e+08 1.0e+09 1.5e+09 2.0e+09 3.0e+09 5.0e+09
 71  110.64    8.7    9.4   10.8   12.4   16.6   21.3  2.0e+07 3.0e+07 5.0e+07 8.0e+07 1.0e+08 1.5e+08 2.0e+08 3.0e+08 5.0e+08 8.0e+08 1.0e+09 1.5e+09 2.0e+09 3.0e+09 5.0e+09
 72  111.31    8.6    9.4   10.8   12.4   16.6   21.2  2.0e+07 3.0e+07 5.0e+07 8.0e+07 1.0e+08 1.5e+08 2.0e+08 3.0e+08 5.0e+08 8.0e+08 1.0e+09 1.5e+09 2.0e+09 3.0e+09 5.0e+09
 73  111.98    8.6    9.3   10.8   12.3   16.6   21.2  2.0e+07 3.0e+07 5.0e+07 8.0e+07 1.0e+08 1.5e+08 2.0e+08 3.0e+08 5.0e+08 8.0e+08 1.0e+09 1.5e+09 2.0e+09 3.0e+09 5.0e+09
 74  112.65    8.5    9.3   10.7   12.3   16.6   21.2  2.0e+07 3.0e+07 5.0e+07 8.0e+07 1.0e+08 1.5e+08 2.0e+08 3.0e+08 5.0e+08 8.0e+08 1.0e+09 1.5e+09 2.0e+09 3.0e+09 5.0e+09
 75  113.31    8.5    9.3   10.7   12.3   16.5   21.2  2.0e+07 3.0e+07 5.0e+07 8.0e+07 1.0e+08 1.5e+08 2.0e+08 3.0e+08 5.0e+08 8.0e+08 1.0e+09 1.5e+09 2.0e+09 3.0e+09 5.0e+09
 76  113.97    8.5    9.2   10.7   12.2   16.5   21.2  2.0e+07 3.0e+07 5.0e+07 8.0e+07 1.0e+08 1.5e+08 2.0e+08 3.0e+08 5.0e+08 8.0e+08 1.0e+09 1.5e+09 2.0e+09 3.0e+09 5.0e+09
 77  114.63    8.4    9.2   10.6   12.2   16.5   21.2  2.0e+07 3.0e+07 5.0e+07 8.0e+07 1.0e+08 1.5e+08 2.0e+08 3.0e+08 5.0e+08 8.0e+08 1.0e+09 1.5e+09 2.0e+09 3.0e+09 5.0e+09
 78  115.28    8.4    9.2   10.6   12.2   16.5   21.1  2.0e+07 3.0e+07 5.0e+07 8.0e+07 1.0e+08 1.5e+08 2.0e+08 3.0e+08 5.0e+08 8.0e+08 1.0e+09 1.5e+09 2.0e+09 3.0e+09 5.0e+09
 79  115.93    8.3    9.1   10.6   12.2   16.5   21.1  2.0e+07 3.0e+07 5.0e+07 8.0e+07 1.0e+08 1.5e+08 2.0e+08 3.0e+08 5.0e+08 8.0e+08 1.0e+09 1.5e+09 2.0e+09 3.0e+09 5.0e+09
 80  116.58    8.3    9.1   10.5   12.1   16.4   21.1  2.0e+07 3.0e+07 5.0e+07 8.0e+07 1.0e+08 1.5e+08 2.0e+08 3.0e+08 5.0e+08 8.0e+08 1.0e+09 1.5e+09 2.0e+09 3.0e+09 5.0e+09
 81  117.23    8.3    9.1   10.5   12.1   16.4   21.1  2.0e+07 3.0e+07 5.0e+07 8.0e+07 1.0e+08 1.5e+08 2.0e+08 3.0e+08 5.0e+08 8.0e+08 1.0e+09 1.5e+09 2.0e+09 3.0e+09 5.0e+09
 82  117.87    8.2    9.0   10.5   12.1   16.4   21.1  2.0e+07 3.0e+07 5.0e+07 8.0e+07 1.0e+08 1.5e+08 2.0e+08 3.0e+08 5.0e+08 8.0e+08 1.0e+09 1.5e+09 2.0e+09 3.0e+09 5.0e+09
 83  118.51    8.2    9.0   10.4   12.1   16.4   21.1  2.0e+07 3.0e+07 5.0e+07 8.0e+07 1.0e+08 1.5e+08 2.0e+08 3.0e+08 5.0e+08 8.0e+08 1.0e+09 1.5e+09 2.0e+09 3.0e+09 5.0e+09
 84  119.15    8.2    9.0   10.4   12.0   16.4   21.0  2.0e+07 3.0e+07 5.0e+07 8.0e+07 1.0e+08 1.5e+08 2.0e+08 3.0e+08 5.0e+08 8.0e+08 1.0e+09 1.5e+09 2.0e+09 3.0e+09 5.0e+09
 85  119.78    8.1    8.9   10.4   12.0   16.4   21.0  2.0e+07 3.0e+07 5.0e+07 8.0e+07 1.0e+08 1.5e+08 2.0e+08 3.0e+08 5.0e+08 8.0e+08 1.0e+09 1.5e+09 2.0e+09 3.0e+09 5.0e+09
 86  120.42    8.1    8.9   10.4   12.0   16.3   21.0  2.0e+07 3.0e+07 5.0e+07 8.0e+07 1.0e+08 1.5e+08 2.0e+08 3.0e+08 5.0e+08 8.0e+08 1.0e+09 1.5e+09 2.0e+09 3.0e+09 5.0e+09
 87  121.05    8.1    8.9   10.3   12.0   16.3   21.0  2.0e+07 3.0e+07 5.0e+07 8.0e+07 1.0e+08 1.5e+08 2.0e+08 3.0e+08 5.0e+08 8.0e+08 1.0e+09 1.5e+09 2.0e+09 3.0e+09 5.0e+09
 88  121.68    8.0    8.8   10.3   11.9   16.3   21.0  2.0e+07 3.0e+07 5.0e+07 8.0e+07 1.0e+08 1.5e+08 2.0e+08 3.0e+08 5.0e+08 8.0e+08 1.0e+09 1.5e+09 2.0e+09 3.0e+09 5.0e+09
 89  122.30    8.0    8.8   10.3   11.9   16.3   21.0  2.0e+07 3.0e+07 5.0e+07 8.0e+07 1.0e+08 1.5e+08 2.0e+08 3.0e+08 5.0e+08 8.0e+08 1.0e+09 1.5e+09 2.0e+09 3.0e+09 5.0e+09
 90  122.93    7.9    8.8   10.3   11.9   16.3   21.0  2.0e+07 3.0e+07 5.0e+07 8.0e+07 1.0e+08 1.5e+08 2.0e+08 3.0e+08 5.0e+08 8.0e+08 1.0e+09 1.5e+09 2.0e+09 3.0e+09 5.0e+09
 91  123.55    7.9    8.7   10.2   11.9   16.3   21.0  2.0e+07 3.0e+07 5.0e+07 8.0e+07 1.0e+08 1.5e+08 2.0e+08 3.0e+08 5.0e+08 8.0e+08 1.0e+09 1.5e+09 2.0e+09 3.0e+09 5.0e+09
 92  124.17    7.9    8.7   10.2   11.9   16.2   20.9  2.0e+07 3.0e+07 5.0e+07 8.0e+07 1.0e+08 1.5e+08 2.0e+08 3.0e+08 5.0e+08 8.0e+08 1.0e+09 1.5e+09 2.0e+09 3.0e+09 5.0e+09
 93  124.78    7.8    8.7   10.2   11.8   16.2   20.9  2.0e+07 3.0e+07 5.0e+07 8.0e+07 1.0e+08 1.5e+08 2.0e+08 3.0e+08 5.0e+08 8.0e+08 1.0e+09 1.5e+09 2.0e+09 3.0e+09 5.0e+09
 94  125.40    7.8    8.6   10.2   11.8   16.2   20.9  2.0e+07 3.0e+07 5.0e+07 8.0e+07 1.0e+08 1.5e+08 2.0e+08 3.0e+08 5.0e+08 8.0e+08 1.0e+09 1.5e+09 2.0e+09 3.0e+09 5.0e+09
 95  126.01    7.8    8.6   10.1   11.8   16.2   20.9  2.0e+07 3.0e+07 5.0e+07 8.0e+07 1.0e+08 1.5e+08 2.0e+08 3.0e+08 5.0e+08 8.0e+08 1.0e+09 1.5e+09 2.0e+09 3.0e+09 5.0e+09
 96  126.62    7.8    8.6   10.1   11.8   16.2   20.9  2.0e+07 3.0e+07 5.0e+07 8.0e+07 1.0e+08 1.5e+08 2.0e+08 3.0e+08 5.0e+08 8.0e+08 1.0e+09 1.5e+09 2.0e+09 3.0e+09 5.0e+09
 97  127.23    7.7    8.6   10.1   11.7   16.2   20.9  2.0e+07 3.0e+07 5.0e+07 8.0e+07 1.0e+08 1.5e+08 2.0e+08 3.0e+08 5.0e+08 8.0e+08 1.0e+09 1.5e+09 2.0e+09 3.0e+09 5.0e+09
 98  127.84    7.7    8.5   10.1   11.7   16.1   20.9  2.0e+07 3.0e+07 5.0e+07 8.0e+07 1.0e+08 1.5e+08 2.0e+08 3.0e+08 5.0e+08 8.0e+08 1.0e+09 1.5e+09 2.0e+09 3.0e+09 5.0e+09
 99  128.44    7.7    8.5   10.0   11.7   16.1   20.9  2.0e+07 3.0e+07 5.0e+07 8.0e+07 1.0e+08 1.5e+08 2.0e+08 3.0e+08 5.0e+08 8.0e+08 1.0e+09 1.5e+09 2.0e+09 3.0e+09 5.0e+09
100  129.05    7.6    8.5   10.0   11.7   16.1   20.8  2.0e+07 3.0e+07 5.0e+07 8.0e+07 1.0e+08 1.5e+08 2.0e+08 3.0e+08 5.0e+08 8.0e+08 1.0e+09 1.5e+09 2.0e+09 3.0e+09 5.0e+09
101  129.64    7.6    8.4   10.0   11.7   16.1   20.8  2.0e+07 3.0e+07 5.0e+07 8.0e+07 1.0e+08 1.5e+08 2.0e+08 3.0e+08 5.0e+08 8.0e+08 1.0e+09 1.5e+09 2.0e+09 3.0e+09 5.0e+09
102  130.25    7.6    8.4   10.0   11.6   16.1   20.8  2.0e+07 3.0e+07 5.0e+07 8.0e+07 1.0e+08 1.5e+08 2.0e+08 3.0e+08 5.0e+08 8.0e+08 1.0e+09 1.5e+09 2.0e+09 3.0e+09 5.0e+09
103  130.84    7.5    8.4    9.9   11.6   16.1   20.8  2.0e+07 3.0e+07 5.0e+07 8.0e+07 1.0e+08 1.5e+08 2.0e+08 3.0e+08 5.0e+08 8.0e+08 1.0e+09 1.5e+09 2.0e+09 3.0e+09 5.0e+09
104  131.44    7.5    8.4    9.9   11.6   16.1   20.8  2.0e+07 3.0e+07 5.0e+07 8.0e+07 1.0e+08 1.5e+08 2.0e+08 3.0e+08 5.0e+08 8.0e+08 1.0e+09 1.5e+09 2.0e+09 3.0e+09 5.0e+09
105  132.03    7.5    8.3    9.9   11.6   16.0   20.8  2.0e+07 3.0e+07 5.0e+07 8.0e+07 1.0e+08 1.5e+08 2.0e+08 3.0e+08 5.0e+08 8.0e+08 1.0e+09 1.5e+09 2.0e+09 3.0e+09 5.0e+09
106  132.62    7.4    8.3    9.9   11.6   16.0   20.8  2.0e+07 3.0e+07 5.0e+07 8.0e+07 1.0e+08 1.5e+08 2.0e+08 3.0e+08 5.0e+08 8.0e+08 1.0e+09 1.5e+09 2.0e+09 3.0e+09 5.0e+09
107  133.21    7.4    8.3    9.8   11.5   16.0   20.8  2.0e+07 3.0e+07 5.0e+07 8.0e+07 1.0e+08 1.5e+08 2.0e+08 3.0e+08 5.0e+08 8.0e+08 1.0e+09 1.5e+09 2.0e+09 3.0e+09 5.0e+09
108  133.80    7.4    8.3    9.8   11.5   16.0   20.8  2.0e+07 3.0e+07 5.0e+07 8.0e+07 1.0e+08 1.5e+08 2.0e+08 3.0e+08 5.0e+08 8.0e+08 1.0e+09 1.5e+09 2.0e+09 3.0e+09 5.0e+09
109  134.38    7.4    8.2    9.8   11.5   16.0   20.8  2.0e+07 3.0e+07 5.0e+07 8.0e+07 1.0e+08 1.5e+08 2.0e+08 3.0e+08 5.0e+08 8.0e+08 1.0e+09 1.5e+09 2.0e+09 3.0e+09 5.0e+09
110  134.97    7.3    8.2    9.8   11.5   16.0   20.7  2.0e+07 3.0e+07 5.0e+07 8.0e+07 1.0e+08 1.5e+08 2.0e+08 3.0e+08 5.0e+08 8.0e+08 1.0e+09 1.5e+09 2.0e+09 3.0e+09 5.0e+09
111  135.55    7.3    8.2    9.8   11.5   16.0   20.7  2.0e+07 3.0e+07 5.0e+07 8.0e+07 1.0e+08 1.5e+08 2.0e+08 3.0e+08 5.0e+08 8.0e+08 1.0e+09 1.5e+09 2.0e+09 3.0e+09 5.0e+09
112  136.13    7.3    8.2    9.7   11.5   15.9   20.7  2.0e+07 3.0e+07 5.0e+07 8.0e+07 1.0e+08 1.5e+08 2.0e+08 3.0e+08 5.0e+08 8.0e+08 1.0e+09 1.5e+09 2.0e+09 3.0e+09 5.0e+09
